freq/Hz	Re(Z)/Ohm	-Im(Z)/Ohm	|Z|/Ohm	Phase(Z)/deg	time/s	<Ewe>/V	<I>/mA	Cs/µF	Cp/µF	cycle number	I Range	|Ewe|/V	|I|/A	(Q-Qo)/mA.h	Re(Y)/Ohm-1	Im(Y)/Ohm-1	|Y|/Ohm-1	Phase(Y)/deg	dq/mA.h	
1.0000186E+006	-2.3653770E+002	-2.4537590E+002	3.4082169E+002	1.3394933E+002	3.888115117995767E+000	4.5011866E-001	-2.7343819E-002	-6.4860482E-004	-3.3619368E-004	1.000000000000000E+000	40	9.7510768E-003	2.8610495E-005	-8.500916609249139E-006	-2.0363196E-003	-2.1124063E-003	2.9340857E-003	-1.3394933E+002	-8.500916609249139E-006
7.1968713E+005	-3.5825729E+002	-2.0987526E+002	4.1520587E+002	1.4963725E+002	4.310117884684587E+000	4.5012617E-001	-2.1735674E-002	-1.0536956E-003	-2.6922207E-004	1.000000000000000E+000	40	1.0287701E-002	2.4777350E-005	-1.121272120230565E-005	-2.0781076E-003	-1.2174030E-003	2.4084437E-003	-1.4963725E+002	-2.711804593056512E-006
5.1794463E+005	-4.5685236E+002	-1.0030003E+002	4.6773300E+002	1.6761740E+002	4.732111824763706E+000	4.5012191E-001	-1.8439991E-002	-3.0636261E-003	-1.4087756E-004	1.000000000000000E+000	40	1.0290425E-002	2.2000640E-005	-1.347046351282895E-005	-2.0882371E-003	-4.5846388E-004	2.1379718E-003	-1.6761740E+002	-2.257742310523302E-006
3.7276388E+005	-4.7162137E+002	5.7433830E+001	4.7510562E+002	-1.7305673E+002	5.154121524799848E+000	4.5011622E-001	-1.6209040E-002	7.4339313E-003	1.0863600E-004	1.000000000000000E+000	40	1.0231092E-002	2.1534352E-005	-1.541856624235091E-005	-2.0893591E-003	2.5444131E-004	2.1047951E-003	1.7305673E+002	-1.948102729521957E-006
2.6826938E+005	-3.9201413E+002	1.8753271E+002	4.3456137E+002	-1.5443436E+002	5.576119944831589E+000	4.5011997E-001	-1.4715529E-002	3.1635300E-003	5.8914721E-004	1.000000000000000E+000	40	1.0135625E-002	2.3323806E-005	-1.721878460048159E-005	-2.0758666E-003	9.9305855E-004	2.3011710E-003	1.5443436E+002	-1.800218358130679E-006
1.9306711E+005	-2.7123837E+002	2.4360132E+002	3.6457077E+002	-1.3807274E+002	5.860111504996894E+000	4.5012063E-001	-1.3852181E-002	3.3840144E-003	1.5108724E-003	1.000000000000000E+000	40	1.0971054E-002	3.0093070E-005	-1.830019734712672E-005	-2.0407389E-003	1.8328037E-003	2.7429517E-003	1.3807274E+002	-1.081412746645125E-006
1.3894559E+005	1.7690628E+001	2.4412723E+000	1.7858278E+001	-7.8570814E+000	7.171119993930915E+000	4.5011753E-001	-1.1256295E-002	4.6920121E-001	8.7682391E-003	1.000000000000000E+000	38	9.7938078E-003	5.4841838E-004	-2.258481228874815E-005	5.5470753E-002	7.6548560E-003	5.5996440E-002	7.8570814E+000	-4.284614941621436E-006
1.0000371E+005	1.7909563E+001	1.8694323E+000	1.8006866E+001	-5.9590564E+000	7.593101720645791E+000	4.5012426E-001	-1.1131446E-002	8.5132283E-001	9.1756629E-003	1.000000000000000E+000	38	1.0371455E-002	5.7597226E-004	-2.431810206346159E-005	5.5234279E-002	5.7654534E-003	5.5534370E-002	5.9590564E+000	-1.733289774713436E-006
7.1964070E+004	1.8060400E+001	1.4863000E+000	1.8121454E+001	-4.7046161E+000	8.015112513996428E+000	4.5012709E-001	-1.0607831E-002	1.4879829E+000	1.0009786E-002	1.000000000000000E+000	38	1.0448527E-002	5.7658320E-004	-2.420768929209832E-005	5.4997284E-002	4.5260610E-003	5.5183209E-002	4.7046161E+000	1.104127713632701E-007
5.1792605E+004	1.8161753E+001	1.1306529E+000	1.8196913E+001	-3.5623293E+000	8.437100454029860E+000	4.5011440E-001	-1.0153162E-002	2.7178349E+000	1.0492676E-002	1.000000000000000E+000	38	1.0459129E-002	5.7477492E-004	-2.478351394187323E-005	5.4848194E-002	3.4145531E-003	5.4954376E-002	3.5623293E+000	-5.758246497749094E-007
3.7271746E+004	1.8266521E+001	1.0396665E+000	1.8296085E+001	-3.2575607E+000	8.859123780770460E+000	4.5011646E-001	-9.5773721E-003	4.1072044E+000	1.3262277E-002	1.000000000000000E+000	38	1.0464449E-002	5.7195016E-004	-2.680885875412625E-005	5.4568186E-002	3.1058302E-003	5.4656502E-002	3.2575607E+000	-2.025344812253025E-006
2.6824154E+004	1.8369823E+001	9.6743041E-001	1.8395281E+001	-3.0146461E+000	9.281104174122447E+000	4.5011225E-001	-9.0537574E-003	6.1330199E+000	1.6962934E-002	1.000000000000000E+000	38	1.0459545E-002	5.6859938E-004	-2.742977695290999E-005	5.4286540E-002	2.8589519E-003	5.4361768E-002	3.0146461E+000	-6.209181987837338E-007
1.9308566E+004	1.8468998E+001	8.9546776E-001	1.8490694E+001	-2.7758069E+000	9.703112967516063E+000	4.5011660E-001	-8.4779663E-003	9.2049227E+000	2.1588061E-002	1.000000000000000E+000	38	1.0441692E-002	5.6469982E-004	-2.880763983737173E-005	5.4017801E-002	2.6190483E-003	5.4081257E-002	2.7758069E+000	-1.377862884461743E-006
1.3899199E+004	1.8591013E+001	8.7685722E-001	1.8611681E+001	-2.7003913E+000	1.012510829421808E+001	4.5010599E-001	-8.4779672E-003	1.3058746E+001	2.8985985E-002	1.000000000000000E+000	38	1.0407206E-002	5.5917603E-004	-2.957918178349307E-005	5.3670034E-002	2.5313818E-003	5.3729698E-002	2.7003913E+000	-7.715419461213380E-007
1.0002226E+004	1.8712252E+001	8.6936307E-001	1.8732435E+001	-2.6600242E+000	1.054711236761068E+001	4.5009336E-001	-8.4798299E-003	1.8303001E+001	3.9421778E-002	1.000000000000000E+000	38	1.0372780E-002	5.5373367E-004	-3.146049172875225E-005	5.3325821E-002	2.4774945E-003	5.3383343E-002	2.6600242E+000	-1.881309945259187E-006
7.1959048E+003	1.8861362E+001	9.3498409E-001	1.8884523E+001	-2.8379085E+000	1.107087703249999E+001	4.5025408E-001	-8.2375892E-003	2.3655411E+001	5.7986498E-002	1.000000000000000E+000	38	1.0581025E-002	5.6030141E-004	-3.289206716718582E-005	5.2888472E-002	2.6217552E-003	5.2953415E-002	2.8379085E+000	-1.431575438433564E-006
5.1797554E+003	1.8996387E+001	9.6114856E-001	1.9020687E+001	-2.8964894E+000	1.175980247856933E+001	4.5022112E-001	-8.4425621E-003	3.1968361E+001	8.1629850E-002	1.000000000000000E+000	38	1.0385670E-002	5.4601970E-004	-3.529104681190620E-005	5.2507170E-002	2.6566731E-003	5.2574337E-002	2.8964894E+000	-2.398979644720379E-006
3.7264229E+003	1.9148510E+001	1.0743426E+000	1.9178625E+001	-3.2112591E+000	1.245276936482696E+001	4.5023909E-001	-8.0046644E-003	3.9754402E+001	1.2474865E-001	1.000000000000000E+000	38	1.0304429E-002	5.3728715E-004	-3.652978693269445E-005	5.2059505E-002	2.9208404E-003	5.2141380E-002	3.2112591E+000	-1.238740120788255E-006
2.6824250E+003	1.9292006E+001	1.2085468E+000	1.9329823E+001	-3.5846071E+000	1.314478073103237E+001	4.5023292E-001	-7.9431729E-003	4.9094074E+001	1.9191118E-001	1.000000000000000E+000	38	1.0206396E-002	5.2801293E-004	-3.763456199521251E-005	5.1632319E-002	3.2345040E-003	5.1733531E-002	3.5846071E+000	-1.104775062518053E-006
1.9306168E+003	1.9514332E+001	1.3727357E+000	1.9562555E+001	-4.0238433E+000	1.383652793717920E+001	4.5021558E-001	-8.1854155E-003	6.0053333E+001	2.9570580E-001	1.000000000000000E+000	38	1.0167749E-002	5.1975565E-004	-3.931170407479739E-005	5.0992057E-002	3.5870364E-003	5.1118065E-002	4.0238433E+000	-1.677142079584884E-006
1.3895557E+003	1.9665966E+001	1.6568872E+000	1.9735640E+001	-4.8158822E+000	1.430262843936544E+001	4.5022309E-001	-7.9636686E-003	6.9127563E+001	4.8723075E-001	1.000000000000000E+000	38	1.0926927E-002	5.5366469E-004	-3.992600880198168E-005	5.0490867E-002	4.2539318E-003	5.0669752E-002	4.8158822E+000	-6.143047271842865E-007
9.9968164E+002	1.9945883E+001	2.0197349E+000	2.0047882E+001	-5.7821045E+000	1.499463263223151E+001	4.5022815E-001	-8.1090163E-003	7.8825012E+001	8.0004752E-001	1.000000000000000E+000	38	1.0130302E-002	5.0530536E-004	-4.124638922680687E-005	4.9626797E-002	5.0252466E-003	4.9880579E-002	5.7821045E+000	-1.320380424825194E-006
7.1977081E+002	2.0301243E+001	2.5133457E+000	2.0456230E+001	-7.0574536E+000	1.546062196103412E+001	4.5022789E-001	-7.6245316E-003	8.7977913E+001	1.3280882E+000	1.000000000000000E+000	38	1.0341756E-002	5.0555530E-004	-4.262834072145375E-005	4.8514482E-002	6.0062171E-003	4.8884861E-002	7.0574536E+000	-1.381951494646879E-006
5.1784589E+002	2.0747782E+001	3.0065339E+000	2.0964487E+001	-8.2452631E+000	1.592841488987324E+001	4.5022500E-001	-8.2748579E-003	1.0222415E+002	2.1024091E+000	1.000000000000000E+000	38	1.0425532E-002	4.9729488E-004	-4.398746869555261E-005	4.7206651E-002	6.8406542E-003	4.7699712E-002	8.2452631E+000	-1.359127974098859E-006
3.7273392E+002	2.1413935E+001	3.6129596E+000	2.1716585E+001	-9.5767536E+000	1.639683661882009E+001	4.5022023E-001	-7.5593116E-003	1.1818385E+002	3.2711561E+000	1.000000000000000E+000	38	1.0473157E-002	4.8226537E-004	-4.485987518159648E-005	4.5406014E-002	7.6609044E-003	4.6047755E-002	9.5767536E+000	-8.724064860438750E-007
2.6819781E+002	2.2158241E+001	4.2210035E+000	2.2556696E+001	-1.0785261E+001	1.686596024109167E+001	4.5022917E-001	-7.6375739E-003	1.4058830E+002	4.9229980E+000	1.000000000000000E+000	38	1.0447500E-002	4.6316625E-004	-4.627175583396760E-005	4.3549616E-002	8.2959235E-003	4.4332735E-002	1.0785261E+001	-1.411880652371113E-006
1.9308478E+002	2.3161602E+001	4.8724933E+000	2.3668566E+001	-1.1880051E+001	1.733561453009224E+001	4.5022845E-001	-7.9673957E-003	1.6916902E+002	7.1693444E+000	1.000000000000000E+000	38	1.0457612E-002	4.4183547E-004	-4.672616406988992E-005	4.1345164E-002	8.6977584E-003	4.2250130E-002	1.1880051E+001	-4.544082359223271E-007
1.3897717E+002	2.4248091E+001	5.5002198E+000	2.4864077E+001	-1.2780200E+001	1.806310307126842E+001	4.5023438E-001	-7.3189698E-003	2.0820761E+002	1.0188541E+001	1.000000000000000E+000	39	1.0473044E-002	4.2121185E-004	-4.829644346486000E-005	3.9222281E-002	8.8968314E-003	4.0218666E-002	1.2780200E+001	-1.570279394970078E-006
9.9968163E+001	2.5402931E+001	6.0900617E+000	2.6122744E+001	-1.3481568E+001	1.852963525347150E+001	4.5023805E-001	-7.3625725E-003	2.6141876E+002	1.4208314E+001	1.000000000000000E+000	39	1.0427545E-002	3.9917495E-004	-4.940974557861510E-005	3.7225988E-002	8.9245047E-003	3.8280819E-002	1.3481568E+001	-1.113302113755102E-006
7.1956963E+001	2.6711363E+001	6.7263112E+000	2.7545238E+001	-1.4134055E+001	1.898399052835885E+001	4.5023617E-001	-7.3569850E-003	3.2882919E+002	1.9607904E+001	1.000000000000000E+000	39	1.0416243E-002	3.7815041E-004	-5.062592343702050E-005	3.5204887E-002	8.8651050E-003	3.6303915E-002	1.4134055E+001	-1.216177858405395E-006
5.1807014E+001	2.8064423E+001	7.2363830E+000	2.8982357E+001	-1.4458716E+001	1.943545148309204E+001	4.5022836E-001	-7.2084712E-003	4.2453162E+002	2.6465841E+001	1.000000000000000E+000	39	1.0401156E-002	3.5887887E-004	-5.111436925109572E-005	3.3410940E-002	8.6149778E-003	3.4503751E-002	1.4458716E+001	-4.884458140752240E-007
3.7278458E+001	2.9379442E+001	7.8333182E+000	3.0405798E+001	-1.4929233E+001	1.987604438405833E+001	4.5023230E-001	-7.1292799E-003	5.4502502E+002	3.6173885E+001	1.000000000000000E+000	39	1.0385186E-002	3.4155283E-004	-5.257132277115286E-005	3.1778306E-002	8.4729176E-003	3.2888465E-002	1.4929233E+001	-1.456953520057136E-006
2.6828648E+001	3.0686989E+001	8.5897083E+000	3.1866508E+001	-1.5637660E+001	2.031261787149197E+001	4.5023641E-001	-7.2742505E-003	6.9062604E+002	5.0180016E+001	1.000000000000000E+000	39	1.0387481E-002	3.2596861E-004	-5.295890453433235E-005	3.0219365E-002	8.4588137E-003	3.1380910E-002	1.5637660E+001	-3.875817631794951E-007
1.9302071E+001	3.1886227E+001	9.6581297E+000	3.3316826E+001	-1.6851217E+001	2.079499837438925E+001	4.5022038E-001	-7.2390349E-003	8.5373523E+002	7.1743408E+001	1.000000000000000E+000	39	1.0375978E-002	3.1143357E-004	-5.453991033613480E-005	2.8726047E-002	8.7009314E-003	3.0014863E-002	1.6851217E+001	-1.581005801802449E-006
1.3901218E+001	3.2992722E+001	1.1164518E+001	3.4830536E+001	-1.8695478E+001	2.129475554478995E+001	4.5021376E-001	-7.2977319E-003	1.0254802E+003	1.0536271E+002	1.000000000000000E+000	39	1.0377657E-002	2.9794709E-004	-5.582018264365474E-005	2.7195551E-002	9.2027942E-003	2.8710440E-002	1.8695478E+001	-1.280272307519938E-006
9.9968166E+000	3.4046486E+001	1.3402584E+001	3.6589512E+001	-2.1487350E+001	2.176062034026836E+001	4.5023304E-001	-7.2528250E-003	1.1878727E+003	1.5937996E+002	1.000000000000000E+000	39	1.0366773E-002	2.8332637E-004	-5.513429862287638E-005	2.5430743E-002	1.0010951E-002	2.7330237E-002	2.1487350E+001	6.858840207783578E-007
7.1938338E+000	3.5060699E+001	1.6401812E+001	3.8707520E+001	-2.5070753E+001	2.210007766302442E+001	4.5023653E-001	-6.9248681E-003	1.3488632E+003	2.4219260E+002	1.000000000000000E+000	39	1.0372557E-002	2.6797265E-004	-5.733879989805812E-005	2.3400756E-002	1.0947152E-002	2.5834773E-002	2.5070753E+001	-2.204501275181731E-006
5.1807017E+000	3.6029724E+001	2.0667871E+001	4.1536755E+001	-2.9840044E+001	2.255444931125385E+001	4.5021948E-001	-6.7515727E-003	1.4864004E+003	3.6801218E+002	1.000000000000000E+000	39	1.0363141E-002	2.4949329E-004	-5.522351571971861E-005	2.0883141E-002	1.1979277E-002	2.4075063E-002	2.9840044E+001	2.115284178339507E-006
3.7273393E+000	3.7196678E+001	2.7213398E+001	4.6088631E+001	-3.6189510E+001	2.316354211352882E+001	4.5022166E-001	-7.2214273E-003	1.5690559E+003	5.4703656E+002	1.000000000000000E+000	39	1.0375369E-002	2.2511776E-004	-5.921057825686684E-005	1.7511226E-002	1.2811358E-002	2.1697326E-002	3.6189510E+001	-3.987062537148231E-006
2.6819408E+000	3.8284882E+001	3.5370190E+001	5.2122765E+001	-4.2733864E+001	2.399364961966421E+001	4.5023385E-001	-7.0268530E-003	1.6777744E+003	7.7259772E+002	1.000000000000000E+000	39	1.0365241E-002	1.9886208E-004	-6.308177384480355E-005	1.4091993E-002	1.3019146E-002	1.9185474E-002	4.2733864E+001	-3.871195587936706E-006
1.9299686E+000	3.8736996E+001	4.7827564E+001	6.1546982E+001	-5.0994938E+001	2.570949815443601E+001	4.5023113E-001	-6.6668838E-003	1.7242158E+003	1.0412012E+003	1.000000000000000E+000	40	1.0374486E-002	1.6856207E-004	-6.175348593193777E-005	1.0226157E-002	1.2625971E-002	1.6247751E-002	5.0994938E+001	1.328287912865774E-006
1.3896302E+000	4.0375263E+001	6.4963905E+001	7.6488373E+001	-5.8138924E+001	2.727291908205370E+001	4.5022383E-001	-6.7456150E-003	1.7629856E+003	1.2717512E+003	1.000000000000000E+000	40	1.0364843E-002	1.3550873E-004	-6.377445399086082E-005	6.9011985E-003	1.1104046E-002	1.3073882E-002	5.8138924E+001	-2.020968058923046E-006
1.0000616E+000	4.1193985E+001	8.8660782E+001	9.7763382E+001	-6.5079262E+001	2.943121779788635E+001	4.5021313E-001	-6.6679842E-003	1.7949891E+003	1.4762927E+003	1.000000000000000E+000	40	1.0365903E-002	1.0603053E-004	-7.170451885669051E-005	4.3100403E-003	9.2763938E-003	1.0228779E-002	6.5079262E+001	-7.930064865829695E-006