<?xml version="1.0" encoding="UTF-8"?>
<xrdMeasurements xmlns="http://www.xrdml.com/XRDMeasurement/1.3" xmlns:xsi="http://www.w3.org/2001/XMLSchema-instance" xsi:schemaLocation="http://www.xrdml.com/XRDMeasurement/1.3 http://www.xrdml.com/XRDMeasurement/1.3/XRDMeasurement.xsd" status="Completed">
	<comment>
		<entry>Configuration=Reflection- Transmission Spinner, Owner=User-1, Creation date=11/14/2008 1:31:23 PM</entry>
		<entry>Goniometer=PW3050/60 (Theta/Theta); Minimum step size 2Theta:0.001; Minimum step size Omega:0.001</entry>
		<entry>Sample stage=Spinner PW3064</entry>
		<entry>Diffractometer system=XPERT-PRO</entry>
		<entry>Measurement program=IñigoGonzalez I, Owner=User-1, Creation date=9/30/2024 1:01:37 PM</entry>
	</comment>
	<sample type="To be analyzed">
		<id>CuCo2O4</id>
		<name></name>
		<preparedBy></preparedBy>
	</sample>
	<xrdMeasurement measurementType="Scan" status="Completed" sampleMode="Reflection">
		<comment>
			<entry/>
		</comment>
		<usedWavelength intended="K-Alpha 1">
			<kAlpha1 unit="Angstrom">1.5405980</kAlpha1>
			<kAlpha2 unit="Angstrom">1.5444260</kAlpha2>
			<kBeta unit="Angstrom">1.3922500</kBeta>
			<ratioKAlpha2KAlpha1>0.5000</ratioKAlpha2KAlpha1>
		</usedWavelength>
		<incidentBeamPath>
			<radius unit="mm">240.00</radius>
			<xRayTube id="1010048" name="PW3373/10 Cu LFF DK436935">
				<tension unit="kV">40</tension>
				<current unit="mA">40</current>
				<anodeMaterial>Cu</anodeMaterial>
				<focus type="Line">
					<length unit="mm">12.0</length>
					<width unit="mm">0.4</width>
					<takeOffAngle unit="deg">6.0</takeOffAngle>
				</focus>
			</xRayTube>
			<sollerSlit id="21010002" name="Soller 0.04 rad.">
				<opening unit="rad">0.0400</opening>
			</sollerSlit>
			<antiScatterSlit id="22010001" name="Slit Fixed 4°" xsi:type="fixedAntiScatterSlitType">
				<height unit="mm">5.88</height>
			</antiScatterSlit>
			<divergenceSlit id="22010012" name="Prog. Div. Slit" xsi:type="fixedDivergenceSlitType">
				<distanceToSample unit="mm">140.00</distanceToSample>
				<angle unit="deg">1</angle>
			</divergenceSlit>
		</incidentBeamPath>
		<sampleMovement xsi:type="spinningSampleMovementType">
			<spinnerRevolutionTime unit="seconds">2.0</spinnerRevolutionTime>
		</sampleMovement>
		<diffractedBeamPath>
			<radius unit="mm">240.00</radius>
			<antiScatterSlit id="22060009" name="Prog. AS Slit" xsi:type="fixedAntiScatterSlitType">
				<angle unit="deg">0.5</angle>
			</antiScatterSlit>
			<receivingSlit id="22010005" name="Slit Fixed 1/4°">
				<height unit="mm">0.38</height>
			</receivingSlit>
			<detector id="7010015" name="PIXcel" xsi:type="rtmsDetectorType">
				<phd>
					<lowerLevel unit="%">25.5</lowerLevel>
					<upperLevel unit="%">70.0</upperLevel>
				</phd>
				<mode>Scanning</mode>
				<activeLength unit="deg">3.347</activeLength>
			</detector>
		</diffractedBeamPath>
		<scan appendNumber="0" mode="Continuous" scanAxis="Gonio" status="Completed">
			<header>
				<startTimeStamp>2024-09-30T14:13:13+02:00</startTimeStamp>
				<endTimeStamp>2024-09-30T14:32:14+02:00</endTimeStamp>
				<author>
					<name>Administrador</name>
				</author>
				<source>
					<applicationSoftware version="2.2f">X'Pert Data Collector</applicationSoftware>
					<instrumentControlSoftware version="2.1A">XPERT-PRO</instrumentControlSoftware>
					<instrumentID>0000000011050998</instrumentID>
				</source>
			</header>
			<dataPoints>
				<positions axis="2Theta" unit="deg">
					<startPosition>20.01313028</startPosition>
					<endPosition>79.99226076</endPosition>
				</positions>
				<positions axis="Omega" unit="deg">
					<startPosition>10.00656514</startPosition>
					<endPosition>39.99613038</endPosition>
				</positions>
				<commonCountingTime unit="seconds">118.320</commonCountingTime>
				<intensities unit="counts">375 404 391 362 369 386 364 364 379 358 337 365 343 379 391 379 387 396 313 381 367 365 338 368 313 363 392 365 338 354 379 341 372 375 380 363 362 355 373 358 381 370 343 382 353 364 351 344 365 398 349 369 367 356 337 332 352 371 335 376 373 355 361 354 345 348 351 369 364 380 383 371 406 375 359 330 367 341 365 341 365 389 372 360 353 341 364 395 365 368 395 406 376 397 373 335 359 336 357 367 379 342 327 364 376 337 347 362 386 352 355 356 323 346 336 374 354 353 367 368 356 371 364 367 323 375 343 360 393 363 378 348 363 376 360 358 350 361 377 352 344 316 394 371 323 339 378 369 356 333 334 340 389 366 350 376 356 338 341 376 393 379 354 355 379 326 355 368 331 367 382 360 365 326 332 372 352 393 334 341 330 359 355 356 321 333 364 333 365 336 326 375 369 352 371 351 404 346 339 382 360 368 332 360 376 403 378 379 387 314 377 362 357 363 357 345 397 357 363 336 341 328 379 338 341 378 356 358 383 354 338 347 329 314 341 360 384 328 395 367 350 374 358 329 349 351 344 335 323 365 332 342 319 352 353 370 338 330 354 376 317 338 367 385 295 331 376 336 346 381 327 343 362 331 342 339 360 369 359 342 361 350 325 350 342 349 385 348 370 365 360 368 378 374 375 348 295 350 335 372 349 390 340 347 358 367 342 343 376 322 350 334 349 359 373 376 372 345 368 349 329 345 323 323 333 369 348 322 343 352 378 336 346 353 337 321 349 336 339 355 352 360 339 348 337 337 344 323 336 326 351 370 346 354 357 391 392 340 369 356 348 339 361 342 327 346 300 333 330 318 343 357 355 355 340 353 351 318 360 370 346 342 392 369 354 321 382 342 313 339 341 339 349 324 371 342 347 332 356 324 364 352 363 350 378 367 372 351 362 350 342 382 415 402 375 349 374 339 374 385 390 433 478 479 525 568 680 817 998 1173 1210 1263 1218 1003 924 736 696 542 507 480 447 398 417 421 385 389 362 378 361 358 384 352 363 363 359 350 329 326 334 360 351 370 350 355 353 315 353 357 338 360 327 379 338 341 349 340 320 343 317 313 324 336 379 317 331 374 355 318 350 304 343 324 311 336 344 337 349 339 351 344 395 352 330 364 353 368 343 311 356 369 333 375 346 322 320 356 303 338 332 333 347 328 317 337 351 340 310 332 332 333 329 379 366 354 323 355 307 293 337 332 343 345 341 332 353 331 316 379 361 349 341 347 337 341 351 362 355 373 379 384 338 353 342 350 351 345 319 350 332 343 318 299 344 369 343 328 345 385 326 360 377 383 376 373 371 371 372 375 402 375 399 385 422 424 427 424 389 385 362 400 354 393 350 346 387 350 384 328 309 356 385 385 359 374 346 395 376 351 375 343 346 386 396 427 421 362 403 421 432 456 509 538 551 609 675 725 901 1116 1352 1779 2200 2564 2906 2891 2746 2524 2253 1837 1579 1189 986 870 736 617 605 564 505 467 446 376 416 383 381 381 373 385 383 392 401 348 379 352 354 350 356 348 334 344 367 366 356 338 378 335 346 345 363 340 336 342 303 381 344 368 367 349 379 355 388 340 389 355 433 442 490 570 616 552 633 607 550 550 507 478 441 443 443 397 416 398 383 373 359 355 366 333 346 373 349 358 347 370 338 337 317 326 344 330 307 332 362 354 308 345 354 290 329 339 329 370 347 373 303 344 393 325 341 332 350 325 346 299 303 318 336 346 323 298 322 329 328 334 301 315 310 318 303 326 301 358 333 333 308 339 322 322 325 326 301 345 344 340 334 335 367 341 312 311 345 336 339 320 351 320 344 318 333 329 332 318 309 315 289 346 300 334 359 327 338 313 296 327 305 308 292 308 308 321 324 345 328 332 341 324 348 313 326 348 325 341 336 335 310 336 335 315 358 296 320 322 313 295 320 333 296 297 347 337 289 326 333 304 338 311 311 329 316 325 332 338 327 328 333 308 315 356 308 312 342 302 292 338 332 337 317 323 323 357 351 341 335 328 374 383 352 401 389 391 424 397 406 385 416 350 363 390 399 370 385 348 359 360 362 361 337 324 360 342 317 350 327 342 326 358 345 342 332 299 320 323 332 313 333 387 343 358 366 382 433 405 456 531 518 644 716 727 784 796 698 678 603 594 531 498 402 378 404 400 390 329 338 346 358 346 332 329 340 302 346 294 327 328 336 308 306 300 312 311 333 338 301 325 327 284 289 344 304 304 290 316 314 322 283 311 328 349 289 312 306 304 299 273 293 324 287 299 299 303 294 314 324 303 323 289 295 307 309 317 313 330 283 315 276 281 286 288 317 307 268 302 294 319 324 345 302 283 319 295 326 345 301 286 282 285 311 314 313 351 289 290 277 313 306 321 334 319 319 294 313 284 306 328 319 328 307 276 308 301 282 315 298 299 309 321 330 320 307 303 307 284 276 330 272 306 289 285 308 304 330 297 322 296 294 284 326 330 305 305 342 316 288 325 316 305 322 317 292 298 298 309 314 317 312 317 307 313 296 284 342 314 281 332 314 293 297 285 320 303 291 272 301 282 318 290 329 300 311 333 303 329 305 292 253 304 315 282 301 286 300 313 327 307 324 299 325 317 303 361 311 310 303 314 327 337 355 367 371 378 402 383 362 314 346 354 343 340 327 341 315 346 316 315 317 304 300 316 314 287 352 317 321 306 313 292 315 321 284 288 282 290 318 274 297 276 294 307 276 322 323 307 283 323 299 307 319 292 324 280 274 283 315 299 300 296 286 337 289 310 302 284 293 285 289 301 277 274 302 321 293 299 257 291 286 309 284 287 314 314 322 277 313 333 315 306 279 312 289 275 276 283 297 303 296 288 295 276 315 297 306 321 291 279 321 291 298 332 317 309 309 274 307 261 310 289 278 298 298 283 308 271 290 289 302 295 301 289 292 295 309 285 294 266 288 295 304 286 287 274 283 303 309 300 311 278 278 276 298 275 303 258 282 300 329 290 289 281 294 298 288 277 278 289 283 275 309 303 292 302 289 280 300 304 350 283 304 278 294 296 301 255 319 327 330 348 351 378 402 407 447 492 445 408 412 417 409 390 342 340 347 338 320 308 307 318 288 298 316 325 301 304 275 284 296 290 302 260 291 293 278 286 285 272 285 315 307 304 260 307 280 275 292 279 267 305 291 283 325 310 276 249 292 292 318 267 285 310 308 292 271 281 258 282 266 289 276 301 274 298 307 314 293 287 250 299 276 298 283 299 297 322 248 306 303 305 295 291 283 278 273 288 280 304 277 268 272 273 291 305 298 308 277 269 278 294 251 280 297 276 277 305 302 275 308 297 312 306 328 285 315 314 299 302 355 324 348 326 356 356 333 350 425 405 423 410 479 541 627 743 757 844 806 758 736 699 656 634 606 595 596 489 410 399 380 404 339 292 337 322 351 304 332 310 329 282 297 302 304 281 297 271 267 303 275 282 266 267 296 265 297 290 270 288 281 270 301 282 270 288 247 263 268 309 295 297 287 268 249 268 279 271 286 279 252 305 272 286 278 275 284 273 258 271 291 272 238 264 286 288 264 277 297 269 306 272 300 287 251 261 300 298 292 266 304 257 279 297 287 275 280 288 283 264 274 284 292 265 270 291 270 255 248 280 299 270 276 272 282 277 255 251 276 277 281 267 258 231 277 294 303 262 265 276 260 279 281 256 286 259 289 250 250 265 273 279 258 256 279 271 257 278 229 276 260 286 259 266 262 238 253 281 236 238 235 286 269 296 284 251 287 250 268 285 283 278 269 280 270 268 237 270 276 292 284 274 292 281 273 276 253 276 276 259 271 251 228 258 277 231 261 294 329 276 269 315 287 304 284 291 313 325 339 321 346 344 359 400 431 428 498 531 611 669 782 785 845 723 725 676 694 670 655 588 552 544 461 400 390 373 347 318 305 349 319 341 284 303 284 286 296 295 333 270 285 292 265 277 284 257 270 287 256 258 258 244 260 268 277 249 255 276 275 258 241 285 232 271 249 281 271 266 255 270 248 289 257 269 257 273 253 253 261 258 271 259 256 272 274 280 295 246 259 277 253 240 247 263 225 251 262 283 245 275 247 248 268 279 268 256 241 262 277 276 248 224 249 265 270 264 259 273 300 251 285 261 266 267 266 260 238 287 247 271 238 295 248 236 284 270 254 275 280 272 283 292 258 255 267 263 278 273 292 276 282 230 280 224 274 246 261 263 261 244 271 264 264 251 241 271 284 246 250 252 237 249 237 230 257 268 220 249 299 223 240 275 240 254 243 257 237 246 248 235 259 256 242 270 263 229 260 237 277 260 284 262 265 248 238 221 258 257 252 242 258 267 255 237 235 240 274 250 256 243 252 267 250 242 231 231 239 232 255 261 244 268 271 213 235 244 250 227 255 263 235 259 250 247 245 238 247 225 264 235 261 271 269 243 271 271 248 251 265 239 237 225 260 244 261 248 242 241 250 238 262 241 263 248 247 215 263 260 269 267 287 245 261 259 216 242 233 252 256 249 228 233 246 256 240 243 269 243 250 249 229 241 245 261 239 222 258 256 242 262 265 244 267 235 228 228 263 236 234 271 260 278 250 230 214 247 235 252 237 235 265 231 256 263 237 239 272 255 259 244 259 283 256 271 285 282 260 284 287 322 258 285 320 294 295 310 369 371 403 442 433 457 508 481 419 423 431 396 422 382 423 399 348 343 336 299 299 293 285 281 277 268 255 249 262 259 286 262 277 281 260 262 229 243 223 218 253 213 263 224 240 219 249 249 256 248 212 243 241 220 227 233 240 262 262 252 234 244 243 234 252 250 243 216 239 252 241 233 236 219 228 229 234 238 245 239 232 260 238 240 254 258 219 235 241 247 235 261 268 255 234 223 246 236 241 201 254 248 219 248 252 240 257 274 228 262 252 251 280 286 268 301 315 326 312 288 318 274 290 325 312 293 301 251 276 268 229 243 256 259 268 254 275 233 243 208 273 237 250 245 243 258 248 238 257 264 294 255 267 261 265 298 269 290 316 266 287 276 265 273 282 262 284 290 237 237 235 266 227 248 258 216 242 254 254 235 214 228 216 218 209 245 211 224 221 214 226 214 224 224 214 228 215 234 223 231 239 211 226 223 222 243 248 253 213 243 241 222 217 250 215 229 215</intensities>
			</dataPoints>
		</scan>
	</xrdMeasurement>
</xrdMeasurements>
